##NAMES=Calcite
##RRUFFID=R050048
##IDEAL CHEMISTRY=Ca(CO_3_)
##LOCALITY=Magdalena, New Mexico, USA
##OWNER=RRUFF
##SOURCE=University of Arizona Mineral Museum
##DESCRIPTION=Colorless massive
##STATUS=The identification of this mineral has been confirmed by X-ray diffraction and chemical analysis
##URL=https://www.rruff.net/odr/rruff_sample/R050048
##MEASURED CHEMISTRY=(Ca_0.99_Zn_0.01_)CO_3_
##DIFFRACTION SAMPLE DESCRIPTION=Powder
##CELL PARAMETERS=a: 4.9793 b: 4.9793 c: 17.0244 alpha: 90 beta: 90 gamma: 120 volume: 365.55 crystal system: hexagonal
##FILETYPE=Raman RAW
##RAMAN WAVELENGTH=532

143.0664, 579.6702
144.9948, 642.2200
146.9233, 708.5244
148.8518, 780.7955
150.7802, 859.7125
152.7087, 933.3843
154.6372, 1005.537
156.5656, 1069.782
158.4941, 1114.941
160.4226, 1138.806
162.3510, 1148.138
164.2795, 1145.519
166.2080, 1127.211
168.1364, 1107.150
170.0649, 1088.432
171.9934, 1069.537
173.9218, 1045.146
175.8503, 1010.578
177.7788, 976.1970
179.7072, 946.2055
181.6357, 921.3691
183.5642, 897.4783
185.4926, 872.8907
187.4211, 849.6390
189.3496, 830.8730
191.2780, 820.6738
193.2065, 811.7959
195.1350, 800.7675
197.0634, 786.4014
198.9919, 777.1555
200.9204, 778.6050
202.8488, 786.1158
204.7773, 790.5722
206.7058, 789.0479
208.6342, 787.8141
210.5627, 789.3103
212.4912, 794.0367
214.4196, 798.7530
216.3481, 801.9631
218.2766, 804.5466
220.2050, 809.2753
222.1335, 815.7867
224.0620, 825.0997
225.9904, 837.8653
227.9189, 855.2961
229.8474, 871.1157
231.7758, 884.4413
233.7043, 896.7086
235.6328, 908.8312
237.5612, 917.5258
239.4897, 930.4054
241.4182, 948.8046
243.3466, 974.7903
245.2751, 1009.143
247.2036, 1056.395
249.1320, 1110.218
251.0605, 1164.120
252.9890, 1211.229
254.9174, 1267.667
256.8459, 1338.507
258.7744, 1423.814
260.7029, 1514.427
262.6313, 1604.512
264.5598, 1703.094
266.4883, 1817.895
268.4167, 1957.766
270.3452, 2105.290
272.2737, 2262.012
274.2021, 2425.770
276.1306, 2590.750
278.0591, 2775.439
279.9875, 2947.822
281.9160, 3092.604
283.8445, 3221.755
285.7729, 3296.138
287.7014, 3285.499
289.6299, 3210.010
291.5583, 3114.910
293.4868, 2989.198
295.4153, 2853.922
297.3437, 2717.544
299.2722, 2581.197
301.2007, 2436.655
303.1291, 2272.744
305.0576, 2100.972
306.9861, 1943.872
308.9145, 1800.064
310.8430, 1670.746
312.7715, 1557.575
314.6999, 1459.424
316.6284, 1373.493
318.5569, 1300.787
320.4853, 1238.131
322.4138, 1184.166
324.3423, 1139.180
326.2707, 1099.479
328.1992, 1064.534
330.1277, 1033.827
332.0561, 1006.499
333.9846, 980.1996
335.9131, 958.6596
337.8415, 945.9806
339.7700, 943.1790
341.6985, 939.9229
343.6269, 933.7510
345.5554, 925.1073
347.4839, 916.1157
349.4123, 903.8046
351.3408, 894.3999
353.2693, 891.2270
355.1977, 893.9839
357.1262, 894.7643
359.0547, 890.4288
360.9831, 885.3357
362.9116, 883.2672
364.8401, 884.7499
366.7685, 887.1609
368.6970, 890.4666
370.6255, 893.9826
372.5539, 895.7159
374.4824, 894.3174
376.4109, 893.4409
378.3393, 894.1895
380.2678, 896.3489
382.1963, 897.3168
384.1247, 896.8600
386.0532, 895.1603
387.9817, 892.0827
389.9101, 884.3799
391.8386, 879.6611
393.7671, 880.9666
395.6955, 885.6049
397.6240, 889.1570
399.5525, 890.8660
401.4809, 893.5208
403.4094, 896.9731
405.3379, 901.8676
407.2663, 903.4420
409.1948, 897.3674
411.1233, 887.1630
413.0517, 881.6757
414.9802, 887.1411
416.9087, 892.7538
418.8371, 893.6826
420.7656, 890.5438
422.6941, 888.6182
424.6225, 888.9677
426.5510, 890.0181
428.4795, 892.3751
430.4079, 899.1942
432.3364, 903.5735
434.2649, 900.2186
436.1933, 894.0942
438.1218, 893.2190
440.0503, 903.3602
441.9787, 911.4384
443.9072, 913.4043
445.8357, 908.5680
447.7641, 903.9580
449.6926, 897.8879
451.6211, 896.4400
453.5495, 899.9417
455.4780, 910.7828
457.4065, 917.9833
459.3349, 919.8958
461.2634, 918.7839
463.1919, 919.3997
465.1203, 923.3726
467.0488, 927.3231
468.9773, 927.8046
470.9057, 924.7201
472.8342, 921.6347
474.7627, 917.3667
476.6911, 915.4447
478.6196, 918.6553
480.5481, 926.7377
482.4765, 933.8868
484.4050, 938.8875
486.3335, 942.3712
488.2619, 944.3295
490.1904, 943.7627
492.1189, 942.1853
494.0473, 941.5889
495.9758, 943.3350
497.9043, 946.5748
499.8327, 948.9974
501.7612, 944.8538
503.6897, 935.9459
505.6181, 925.3055
507.5466, 925.0983
509.4751, 938.6193
511.4035, 950.4182
513.3320, 954.8213
515.2604, 950.7565
517.1889, 951.6126
519.1174, 953.2207
521.0458, 953.1678
522.9743, 951.0458
524.9028, 948.7891
526.8312, 948.5040
528.7597, 951.5043
530.6882, 956.7758
532.6166, 961.0198
534.5451, 961.1675
536.4736, 962.0460
538.4020, 965.2742
540.3305, 969.3029
542.2590, 969.4677
544.1874, 964.3889
546.1159, 960.7094
548.0444, 961.6844
549.9728, 968.9985
551.9013, 975.8577
553.8298, 978.7568
555.7582, 978.3676
557.6867, 976.8380
559.6152, 977.4223
561.5436, 979.3521
563.4721, 978.9380
565.4006, 976.7053
567.3290, 976.4077
569.2575, 983.1091
571.1860, 989.0134
573.1144, 989.7930
575.0429, 986.1106
576.9714, 984.4532
578.8998, 983.9684
580.8283, 984.6268
582.7568, 987.1811
584.6852, 991.8854
586.6137, 996.3052
588.5422, 1001.086
590.4706, 1004.608
592.3991, 1005.898
594.3276, 1005.544
596.2560, 1006.529
598.1845, 1007.889
600.1130, 1008.051
602.0414, 1006.185
603.9699, 1001.518
605.8984, 997.5966
607.8268, 995.8051
609.7553, 997.1783
611.6838, 1002.426
613.6122, 1015.183
615.5407, 1023.828
617.4692, 1023.492
619.3976, 1018.200
621.3261, 1015.215
623.2546, 1019.260
625.1830, 1023.928
627.1115, 1025.346
629.0400, 1021.475
630.9684, 1021.733
632.8969, 1033.841
634.8254, 1043.623
636.7538, 1041.958
638.6823, 1030.930
640.6108, 1024.599
642.5392, 1023.716
644.4677, 1025.807
646.3962, 1032.561
648.3246, 1046.203
650.2531, 1051.829
652.1816, 1039.452
654.1100, 1026.453
656.0385, 1025.218
657.9670, 1040.072
659.8954, 1052.955
661.8239, 1062.978
663.7524, 1070.824
665.6808, 1076.536
667.6093, 1075.440
669.5378, 1075.845
671.4662, 1080.483
673.3947, 1090.493
675.3232, 1101.902
677.2516, 1112.084
679.1801, 1124.001
681.1086, 1137.355
683.0370, 1155.487
684.9655, 1179.317
686.8940, 1205.451
688.8224, 1234.015
690.7509, 1262.567
692.6794, 1299.184
694.6078, 1346.211
696.5363, 1400.621
698.4648, 1458.929
700.3932, 1515.951
702.3217, 1582.450
704.2502, 1665.875
706.1786, 1772.448
708.1071, 1889.256
710.0356, 2031.254
711.9641, 2177.851
713.8925, 2275.302
715.8210, 2312.164
717.7495, 2313.708
719.6779, 2281.854
721.6064, 2220.273
723.5349, 2142.210
725.4633, 2040.777
727.3918, 1937.444
729.3203, 1823.641
731.2487, 1712.514
733.1772, 1615.113
735.1057, 1530.464
737.0341, 1454.378
738.9626, 1388.715
740.8911, 1329.804
742.8195, 1279.488
744.7480, 1239.125
746.6765, 1208.825
748.6049, 1191.246
750.5334, 1186.685
752.4619, 1178.207
754.3903, 1161.659
756.3188, 1146.813
758.2473, 1138.352
760.1757, 1134.915
762.1042, 1133.217
764.0327, 1134.035
765.9611, 1136.517
767.8896, 1139.551
769.8181, 1142.422
771.7465, 1145.854
773.6750, 1151.021
775.6035, 1155.572
777.5319, 1158.093
779.4604, 1158.624
781.3889, 1158.890
783.3173, 1160.698
785.2458, 1161.420
787.1743, 1157.728
789.1027, 1146.328
791.0312, 1141.751
792.9597, 1150.690
794.8881, 1161.260
796.8166, 1164.800
798.7451, 1161.215
800.6735, 1159.318
802.6020, 1163.386
804.5305, 1167.341
806.4589, 1166.631
808.3874, 1158.429
810.3159, 1156.345
812.2443, 1166.561
814.1728, 1176.530
816.1013, 1177.845
818.0297, 1172.054
819.9582, 1169.224
821.8867, 1174.407
823.8151, 1179.137
825.7436, 1178.833
827.6721, 1171.614
829.6005, 1167.602
831.5290, 1168.005
833.4575, 1171.774
835.3859, 1177.140
837.3144, 1182.705
839.2429, 1189.599
841.1713, 1202.215
843.0998, 1212.935
845.0283, 1216.436
846.9567, 1212.805
848.8852, 1209.024
850.8137, 1204.272
852.7421, 1200.655
854.6706, 1200.792
856.5991, 1204.880
858.5275, 1207.885
860.4560, 1208.307
862.3845, 1207.814
864.3129, 1207.736
866.2414, 1208.444
868.1699, 1209.827
870.0983, 1212.366
872.0268, 1214.428
873.9553, 1215.577
875.8837, 1214.310
877.8122, 1212.715
879.7407, 1210.285
881.6691, 1211.255
883.5976, 1217.469
885.5261, 1227.120
887.4545, 1234.027
889.3830, 1235.599
891.3115, 1234.519
893.2399, 1234.211
895.1684, 1232.508
897.0969, 1229.951
899.0253, 1228.567
900.9538, 1231.848
902.8823, 1240.008
904.8107, 1245.726
906.7392, 1249.820
908.6677, 1254.355
910.5961, 1258.279
912.5246, 1258.041
914.4531, 1253.228
916.3815, 1250.997
918.3100, 1253.996
920.2385, 1258.049
922.1669, 1258.802
924.0954, 1256.743
926.0239, 1258.820
927.9523, 1266.116
929.8808, 1272.915
931.8093, 1277.007
933.7377, 1276.349
935.6662, 1271.120
937.5947, 1267.089
939.5231, 1267.764
941.4516, 1272.799
943.3801, 1277.356
945.3085, 1282.723
947.2370, 1286.643
949.1655, 1285.859
951.0939, 1276.480
953.0224, 1271.197
954.9509, 1280.412
956.8793, 1297.544
958.8078, 1308.452
960.7363, 1308.909
962.6647, 1302.756
964.5932, 1294.891
966.5217, 1293.421
968.4501, 1298.476
970.3786, 1306.161
972.3071, 1309.154
974.2355, 1306.397
976.1640, 1307.824
978.0925, 1312.871
980.0209, 1321.349
981.9494, 1331.065
983.8779, 1339.619
985.8063, 1343.286
987.7348, 1344.510
989.6633, 1344.784
991.5917, 1345.946
993.5202, 1349.741
995.4487, 1358.657
997.3771, 1361.679
999.3056, 1358.680
1001.234, 1355.879
1003.163, 1358.358
1005.091, 1364.681
1007.019, 1375.405
1008.948, 1390.731
1010.876, 1402.841
1012.805, 1408.975
1014.733, 1411.813
1016.662, 1418.982
1018.590, 1427.115
1020.519, 1430.776
1022.447, 1430.457
1024.376, 1428.554
1026.304, 1432.734
1028.233, 1443.542
1030.161, 1456.313
1032.090, 1465.286
1034.018, 1477.895
1035.947, 1512.768
1037.875, 1577.719
1039.803, 1645.698
1041.732, 1708.335
1043.660, 1766.519
1045.589, 1823.872
1047.517, 1877.982
1049.446, 1928.152
1051.374, 1999.206
1053.303, 2125.182
1055.231, 2301.984
1057.160, 2512.081
1059.088, 2726.330
1061.017, 2965.850
1062.945, 3232.143
1064.874, 3552.458
1066.802, 3934.387
1068.730, 4404.387
1070.659, 4979.369
1072.587, 5622.210
1074.516, 6305.297
1076.444, 7058.545
1078.373, 7971.088
1080.301, 9047.797
1082.230, 10354.59
1084.158, 11874.94
1086.087, 13426.10
1088.015, 14481.20
1089.944, 14967.40
1091.872, 14825.51
1093.801, 14277.36
1095.729, 13425.55
1097.657, 12336.96
1099.586, 11012.94
1101.514, 9579.357
1103.443, 7806.025
1105.371, 6251.385
1107.300, 5055.799
1109.228, 4166.875
1111.157, 3430.893
1113.085, 2969.635
1115.014, 2587.374
1116.942, 2293.964
1118.871, 2082.891
1120.799, 1921.011
1122.728, 1814.187
1124.656, 1743.682
1126.584, 1684.903
1128.513, 1641.003
1130.441, 1602.484
1132.370, 1571.427
1134.298, 1544.831
1136.227, 1518.830
1138.155, 1495.974
1140.084, 1480.340
1142.012, 1472.783
1143.941, 1468.047
1145.869, 1465.808
1147.798, 1465.589
1149.726, 1465.826
1151.655, 1466.077
1153.583, 1467.975
1155.511, 1472.975
1157.440, 1473.879
1159.368, 1462.951
1161.297, 1452.851
1163.225, 1453.982
1165.154, 1466.739
1167.082, 1473.682
1169.011, 1466.744
1170.939, 1458.966
1172.868, 1460.391
1174.796, 1467.928
1176.725, 1470.303
1178.653, 1460.822
1180.582, 1456.334
1182.510, 1463.853
1184.438, 1471.888
1186.367, 1468.787
1188.295, 1453.015
1190.224, 1445.158
1192.152, 1450.637
1194.081, 1458.432
1196.009, 1466.022
1197.938, 1473.550
1199.866, 1479.199
1201.795, 1482.136
1203.723, 1484.321
1205.652, 1488.831
1207.580, 1491.987
1209.509, 1486.295
1211.437, 1467.206
1213.365, 1459.478
1215.294, 1475.287
1217.222, 1491.846
1219.151, 1498.809
1221.079, 1497.620
1223.008, 1498.253
1224.936, 1498.145
1226.865, 1503.534
1228.793, 1526.491
1230.722, 1548.864
1232.650, 1544.733
1234.579, 1514.435
1236.507, 1501.212
1238.436, 1525.373
1240.364, 1547.518
1242.292, 1543.234
1244.221, 1523.337
1246.149, 1514.572
1248.078, 1522.275
1250.006, 1528.168
1251.935, 1529.792
1253.863, 1527.700
1255.792, 1520.542
1257.720, 1508.235
1259.649, 1505.228
1261.577, 1518.740
1263.506, 1530.935
1265.434, 1537.521
1267.363, 1538.718
1269.291, 1534.626
1271.219, 1524.657
1273.148, 1522.419
1275.076, 1538.328
1277.005, 1552.372
1278.933, 1548.432
1280.862, 1533.557
1282.790, 1529.157
1284.719, 1540.058
1286.647, 1549.708
1288.576, 1552.844
1290.504, 1557.070
1292.433, 1562.956
1294.361, 1564.294
1296.290, 1564.234
1298.218, 1566.539
1300.146, 1567.794
1302.075, 1561.367
1304.003, 1552.595
1305.932, 1553.632
1307.860, 1568.395
1309.789, 1580.876
1311.717, 1591.176
1313.646, 1597.633
1315.574, 1598.576
1317.503, 1598.194
1319.431, 1594.792
1321.360, 1580.790
1323.288, 1572.479
1325.217, 1581.753
1327.145, 1596.703
1329.073, 1603.833
1331.002, 1600.978
1332.930, 1599.118
1334.859, 1605.159
1336.787, 1611.989
1338.716, 1614.276
1340.644, 1612.195
1342.573, 1611.659
1344.501, 1611.528
1346.430, 1613.654
1348.358, 1621.107
1350.287, 1625.347
1352.215, 1620.728
1354.144, 1615.768
1356.072, 1621.184
1358.000, 1624.460
1359.929, 1627.847
1361.857, 1642.203
1363.786, 1656.453
1365.714, 1652.894
1367.643, 1632.113
1369.571, 1624.881
1371.500, 1636.739
1373.428, 1649.066
1375.357, 1658.656
1377.285, 1663.252
1379.214, 1657.151
1381.142, 1645.184
1383.071, 1646.116
1384.999, 1668.505
1386.927, 1684.921
1388.856, 1678.177
1390.784, 1665.057
1392.713, 1666.044
1394.641, 1678.755
1396.570, 1688.562
1398.498, 1700.916
1400.427, 1713.888
1402.355, 1720.486
1404.284, 1721.299
1406.212, 1725.973
1408.141, 1739.321
1410.069, 1754.491
1411.998, 1770.590
1413.926, 1786.289
1415.854, 1798.822
1417.783, 1810.522
1419.711, 1828.495
1421.640, 1862.615
1423.568, 1893.955
1425.497, 1913.117
1427.425, 1934.995
1429.354, 1970.922
1431.282, 2015.302
1433.211, 2050.570
1435.139, 2077.662
1437.068, 2100.166
1438.996, 2119.562
1440.925, 2124.855
1442.853, 2107.921
1444.781, 2077.351
1446.710, 2052.698
1448.638, 2036.771
1450.567, 2008.813
1452.495, 1955.474
1454.424, 1901.952
1456.352, 1860.431
1458.281, 1829.095
1460.209, 1808.141
1462.138, 1800.755
1464.066, 1792.245
1465.995, 1778.246
1467.923, 1764.673
1469.852, 1754.409
1471.780, 1749.167
1473.708, 1752.287
1475.637, 1764.635
1477.565, 1773.735
1479.494, 1780.232
1481.422, 1782.964
1483.351, 1775.271
1485.279, 1761.497
1487.208, 1760.860
1489.136, 1783.838
1491.065, 1796.768
1492.993, 1789.675
1494.922, 1785.084
1496.850, 1793.336
1498.779, 1806.673
1500.707, 1808.813
1502.635, 1792.275
1504.564, 1783.750
1506.492, 1788.424
1508.421, 1794.461
1510.349, 1796.353
1512.278, 1797.095
1514.206, 1800.706
1516.135, 1808.061
1518.063, 1811.101
1519.992, 1806.387
1521.920, 1804.250
1523.849, 1808.299
1525.777, 1814.409
1527.706, 1820.905
1529.634, 1829.645
1531.563, 1833.321
1533.491, 1824.168
1535.419, 1815.758
1537.348, 1817.097
1539.276, 1823.597
1541.205, 1828.288
1543.133, 1831.222
1545.062, 1835.106
1546.990, 1841.510
1548.919, 1845.619
1550.847, 1838.422
1552.776, 1833.811
1554.704, 1851.835
1556.633, 1883.474
1558.561, 1894.706
1560.490, 1878.405
1562.418, 1864.773
1564.346, 1861.128
1566.275, 1862.108
1568.203, 1867.789
1570.132, 1877.094
1572.060, 1883.475
1573.989, 1885.774
1575.917, 1890.550
1577.846, 1904.499
1579.774, 1913.083
1581.703, 1901.795
1583.631, 1886.145
1585.560, 1886.203
1587.488, 1900.781
1589.417, 1908.274
1591.345, 1903.053
1593.273, 1900.418
1595.202, 1908.536
1597.130, 1917.218
1599.059, 1918.285
1600.987, 1913.739
1602.916, 1913.143
1604.844, 1917.612
1606.773, 1922.639
1608.701, 1929.378
1610.630, 1934.009
1612.558, 1930.741
1614.487, 1925.897
1616.415, 1933.802
1618.344, 1956.919
1620.272, 1968.541
1622.200, 1958.462
1624.129, 1950.493
1626.057, 1954.310
1627.986, 1960.643
1629.914, 1960.896
1631.843, 1955.839
1633.771, 1954.294
1635.700, 1958.188
1637.628, 1960.459
1639.557, 1960.394
1641.485, 1957.832
1643.414, 1946.821
1645.342, 1935.978
1647.271, 1945.229
1649.199, 1979.097
1651.127, 1999.234
1653.056, 1997.429
1654.984, 1992.364
1656.913, 1985.475
1658.841, 1979.874
1660.770, 1977.831
1662.698, 1979.165
1664.627, 1983.760
1666.555, 1994.352
1668.484, 1999.595
1670.412, 1991.066
1672.341, 1985.733
1674.269, 1989.970
1676.198, 2000.248
1678.126, 2013.719
1680.054, 2030.617
1681.983, 2044.162
1683.911, 2057.542
1685.840, 2060.430
1687.768, 2037.412
1689.697, 2018.207
1691.625, 2023.893
1693.554, 2042.528
1695.482, 2047.257
1697.411, 2034.986
1699.339, 2032.174
1701.268, 2041.565
1703.196, 2058.498
1705.125, 2095.025
1707.053, 2125.719
1708.981, 2126.866
1710.910, 2107.460
1712.838, 2101.227
1714.767, 2111.219
1716.695, 2117.932
1718.624, 2113.666
1720.552, 2115.039
1722.481, 2131.839
1724.409, 2152.729
1726.338, 2166.172
1728.266, 2174.582
1730.195, 2192.154
1732.123, 2222.115
1734.052, 2245.875
1735.980, 2250.955
1737.908, 2264.568
1739.837, 2302.286
1741.765, 2350.186
1743.694, 2395.632
1745.622, 2439.352
1747.551, 2488.399
1749.479, 2547.812
1751.408, 2587.675
1753.336, 2597.726
1755.265, 2594.804
1757.193, 2589.122
1759.122, 2572.245
1761.050, 2527.885
1762.979, 2463.308
1764.907, 2414.300
1766.835, 2385.596
1768.764, 2355.325
1770.692, 2318.324
1772.621, 2280.530
1774.549, 2235.636
1776.478, 2198.244
1778.406, 2188.945
1780.335, 2200.112
1782.263, 2198.291
1784.192, 2177.456
1786.120, 2173.243
1788.049, 2205.761
1789.977, 2233.512
1791.906, 2234.305
1793.834, 2226.455
1795.762, 2228.330
1797.691, 2236.708
1799.619, 2237.585
1801.548, 2228.568
1803.476, 2225.172
1805.405, 2233.007
1807.333, 2240.918
1809.262, 2248.465
1811.190, 2252.232
1813.119, 2246.255
1815.047, 2234.675
1816.976, 2228.808
1818.904, 2228.474
1820.833, 2235.214
1822.761, 2261.853
1824.689, 2276.523
1826.618, 2260.682
1828.546, 2245.571
1830.475, 2253.951
1832.403, 2274.631
1834.332, 2287.997
1836.260, 2293.649
1838.189, 2296.375
1840.117, 2293.345
1842.046, 2292.660
1843.974, 2297.559
1845.903, 2301.714
1847.831, 2300.250
1849.760, 2298.508
1851.688, 2302.420
1853.616, 2311.554
1855.545, 2324.902
1857.473, 2345.951
1859.402, 2351.812
1861.330, 2327.551
1863.259, 2311.554
1865.187, 2329.821
1867.116, 2346.907
1869.044, 2331.541
1870.973, 2301.718
1872.901, 2292.404
1874.830, 2302.754
1876.758, 2314.448
1878.687, 2326.286
1880.615, 2338.737
1882.543, 2355.966
1884.472, 2367.826
1886.400, 2365.059
1888.329, 2357.647
1890.257, 2355.373
1892.186, 2357.393
1894.114, 2360.139
1896.043, 2363.270
1897.971, 2369.504
1899.900, 2386.889
1901.828, 2394.731
1903.757, 2377.051
1905.685, 2362.036
1907.614, 2369.971
1909.542, 2388.403
1911.470, 2399.236
1913.399, 2402.999
1915.327, 2408.402
1917.256, 2420.236
1919.184, 2422.197
1921.113, 2399.189
1923.041, 2386.961
1924.970, 2404.780
1926.898, 2423.784
1928.827, 2418.351
1930.755, 2404.940
1932.684, 2418.443
1934.612, 2455.013
1936.541, 2468.005
1938.469, 2450.947
1940.397, 2434.809
1942.326, 2420.854
1944.254, 2416.806
1946.183, 2432.543
1948.111, 2451.994
1950.040, 2464.836
1951.968, 2472.967
1953.897, 2479.520
1955.825, 2484.375
1957.754, 2485.972
1959.682, 2483.707
1961.611, 2480.216
1963.539, 2469.387
1965.468, 2466.553
1967.396, 2485.675
1969.324, 2503.438
1971.253, 2499.852
1973.181, 2486.856
1975.110, 2484.095
1977.038, 2490.939
1978.967, 2497.151
1980.895, 2504.042
1982.824, 2504.965
1984.752, 2490.447
1986.681, 2487.109
1988.609, 2512.834
1990.538, 2537.854
1992.466, 2543.242
1994.395, 2542.256
1996.323, 2551.442
1998.251, 2566.970
2000.180, 2577.584
2002.108, 2582.977
2004.037, 2580.501
2005.965, 2564.446
2007.894, 2556.696
2009.822, 2570.094
2011.751, 2582.870
2013.679, 2588.729
2015.608, 2587.656
2017.536, 2570.514
2019.465, 2549.699
2021.393, 2557.734
2023.322, 2595.503
2025.250, 2613.601
2027.178, 2600.925
2029.107, 2597.825
2031.035, 2614.346
2032.964, 2627.343
2034.892, 2628.447
2036.821, 2627.862
2038.749, 2630.602
2040.678, 2634.507
2042.606, 2636.036
2044.535, 2637.026
2046.463, 2644.576
2048.392, 2658.380
2050.320, 2663.733
2052.249, 2656.019
2054.177, 2652.782
2056.105, 2659.345
2058.034, 2667.918
2059.962, 2684.064
2061.891, 2692.645
2063.819, 2674.863
2065.748, 2649.650
2067.676, 2643.440
2069.605, 2652.885
2071.533, 2662.495
2073.462, 2672.490
2075.390, 2681.290
2077.319, 2689.040
2079.247, 2694.847
2081.176, 2697.589
2083.104, 2700.220
2085.032, 2703.400
2086.961, 2707.343
2088.889, 2711.814
2090.818, 2717.401
2092.746, 2725.977
2094.675, 2736.165
2096.603, 2743.089
2098.532, 2746.363
2100.460, 2751.318
2102.389, 2761.579
2104.317, 2766.365
2106.246, 2761.726
2108.174, 2757.092
2110.103, 2752.693
2112.031, 2750.909
2113.959, 2753.699
2115.888, 2758.992
2117.816, 2766.008
2119.745, 2773.555
2121.673, 2777.031
2123.602, 2778.113
2125.530, 2788.709
2127.459, 2810.489
2129.387, 2829.467
2131.316, 2845.408
2133.244, 2855.009
2135.173, 2852.604
2137.101, 2850.668
2139.030, 2854.998
2140.958, 2859.777
2142.886, 2857.928
2144.815, 2856.402
2146.743, 2867.166
2148.672, 2885.614
2150.600, 2896.670
2152.529, 2900.410
2154.457, 2895.406
2156.386, 2878.594
2158.314, 2881.458
2160.243, 2922.489
2162.171, 2943.182
2164.100, 2905.939
2166.028, 2875.026
2167.957, 2882.804
2169.885, 2898.778
2171.813, 2901.050
2173.742, 2897.997
2175.670, 2902.955
2177.599, 2911.559
2179.527, 2906.743
2181.456, 2888.722
2183.384, 2883.918
2185.313, 2894.500
2187.241, 2903.877
2189.170, 2910.574
2191.098, 2914.237
2193.027, 2910.400
2194.955, 2911.525
2196.884, 2933.527
2198.812, 2948.696
2200.740, 2929.491
2202.669, 2904.535
2204.597, 2906.501
2206.526, 2923.683
2208.454, 2931.263
2210.383, 2931.024
2212.311, 2939.317
2214.240, 2956.635
2216.168, 2967.297
2218.097, 2969.895
2220.025, 2967.698
2221.954, 2956.832
2223.882, 2953.075
2225.811, 2970.247
2227.739, 2982.640
2229.667, 2980.016
2231.596, 2969.274
2233.524, 2942.486
2235.453, 2920.991
2237.381, 2938.725
2239.310, 2976.460
2241.238, 2993.177
2243.167, 2991.050
2245.095, 2979.660
2247.024, 2959.613
2248.952, 2948.438
2250.881, 2948.020
2252.809, 2953.014
2254.738, 2964.903
2256.666, 2977.030
2258.594, 2992.831
2260.523, 3001.570
2262.451, 2990.637
2264.380, 2983.044
2266.308, 2999.245
2268.237, 3016.990
2270.165, 3015.102
2272.094, 3002.952
2274.022, 2989.170
2275.951, 2977.908
2277.879, 2984.367
2279.808, 3005.649
2281.736, 3011.885
2283.665, 2996.732
2285.593, 3000.383
2287.521, 3046.225
2289.450, 3068.040
2291.378, 3049.883
2293.307, 3036.197
2295.235, 3035.343
2297.164, 3037.672
2299.092, 3038.799
2301.021, 3043.688
2302.949, 3064.563
2304.878, 3080.603
2306.806, 3066.060
2308.735, 3042.355
2310.663, 3037.428
2312.592, 3046.773
2314.520, 3062.342
2316.448, 3082.706
2318.377, 3096.115
2320.305, 3102.528
2322.234, 3102.669
2324.162, 3095.239
2326.091, 3099.101
2328.019, 3123.813
2329.948, 3128.818
2331.876, 3084.486
2333.805, 3059.554
2335.733, 3087.243
2337.662, 3112.828
2339.590, 3115.179
2341.519, 3111.555
2343.447, 3106.240
2345.375, 3104.674
2347.304, 3115.933
2349.232, 3129.570
2351.161, 3130.540
2353.089, 3126.609
2355.018, 3134.699
2356.946, 3150.465
2358.875, 3157.291
2360.803, 3155.190
2362.732, 3143.850
2364.660, 3119.081
2366.589, 3114.988
2368.517, 3137.252
2370.446, 3150.657
2372.374, 3149.732
2374.302, 3144.632
2376.231, 3131.457
2378.159, 3127.662
2380.088, 3146.103
2382.016, 3163.298
2383.945, 3169.874
2385.873, 3174.272
2387.802, 3185.621
2389.730, 3191.144
2391.659, 3170.453
2393.587, 3149.775
2395.516, 3162.299
2397.444, 3185.704
2399.373, 3185.223
2401.301, 3171.628
2403.229, 3170.379
2405.158, 3179.450
2407.086, 3189.656
2409.015, 3201.037
2410.943, 3202.696
2412.872, 3194.130
2414.800, 3199.707
2416.729, 3224.176
2418.657, 3225.494
2420.586, 3186.511
2422.514, 3166.120
2424.443, 3187.581
2426.371, 3204.490
2428.300, 3208.311
2430.228, 3210.770
2432.156, 3217.062
2434.085, 3217.844
2436.013, 3203.775
2437.942, 3192.301
2439.870, 3190.506
2441.799, 3198.168
2443.727, 3224.373
2445.656, 3250.356
2447.584, 3259.464
2449.513, 3256.520
2451.441, 3240.391
2453.370, 3221.279
2455.298, 3221.360
2457.227, 3231.376
2459.155, 3226.468
2461.083, 3212.137
2463.012, 3212.617
2464.940, 3226.716
2466.869, 3235.833
2468.797, 3238.708
2470.726, 3253.518
2472.654, 3283.102
2474.583, 3291.090
2476.511, 3272.317
2478.440, 3258.620
2480.368, 3255.076
2482.297, 3252.977
2484.225, 3245.616
2486.154, 3248.860
2488.082, 3275.625
2490.010, 3294.884
2491.939, 3305.422
2493.867, 3299.776
2495.796, 3259.626
2497.724, 3232.821
2499.653, 3249.674
2501.581, 3273.679
2503.510, 3292.758
2505.438, 3304.424
2507.367, 3303.876
2509.295, 3298.985
2511.224, 3288.178
2513.152, 3284.102
2515.081, 3306.787
2517.009, 3334.378
2518.938, 3344.209
2520.866, 3341.329
2522.794, 3326.302
2524.723, 3308.265
2526.651, 3308.461
2528.580, 3320.125
2530.508, 3324.331
2532.437, 3323.334
2534.365, 3324.523
2536.294, 3327.313
2538.222, 3328.195
2540.151, 3327.203
2542.079, 3323.584
2544.008, 3316.486
2545.936, 3324.746
2547.865, 3349.407
2549.793, 3351.831
2551.721, 3328.950
2553.650, 3309.698
2555.578, 3294.606
2557.507, 3295.069
2559.435, 3322.752
2561.364, 3343.887
2563.292, 3358.938
2565.221, 3364.844
2567.149, 3358.156
2569.078, 3354.811
2571.006, 3359.958
2572.935, 3362.966
2574.863, 3358.800
2576.792, 3356.357
2578.720, 3358.197
2580.648, 3360.659
2582.577, 3364.303
2584.505, 3365.476
2586.434, 3358.042
2588.362, 3357.514
2590.291, 3383.396
2592.219, 3398.454
2594.148, 3376.008
2596.076, 3353.791
2598.005, 3346.435
2599.933, 3349.420
2601.862, 3370.843
2603.790, 3386.815
2605.719, 3375.555
2607.647, 3362.189
2609.575, 3361.738
2611.504, 3369.343
2613.432, 3391.921
2615.361, 3408.752
2617.289, 3388.807
2619.218, 3369.580
2621.146, 3395.266
2623.075, 3425.284
2625.003, 3408.126
2626.932, 3382.192
2628.860, 3399.592
2630.789, 3427.753
2632.717, 3421.692
2634.646, 3403.871
2636.574, 3398.942
2638.502, 3404.659
2640.431, 3429.758
2642.359, 3454.594
2644.288, 3437.563
2646.216, 3403.204
2648.145, 3393.962
2650.073, 3402.193
2652.002, 3419.154
2653.930, 3438.977
2655.859, 3451.260
2657.787, 3457.380
2659.716, 3459.324
2661.644, 3458.121
2663.573, 3457.817
2665.501, 3456.013
2667.429, 3439.606
2669.358, 3419.375
2671.286, 3430.636
2673.215, 3459.091
2675.143, 3453.221
2677.072, 3427.475
2679.000, 3440.128
2680.929, 3476.352
2682.857, 3488.154
2684.786, 3480.589
2686.714, 3471.614
2688.643, 3461.290
2690.571, 3445.857
2692.500, 3429.537
2694.428, 3437.867
2696.356, 3461.969
2698.285, 3466.127
2700.213, 3456.684
2702.142, 3460.503
2704.070, 3474.706
2705.999, 3489.613
2707.927, 3502.902
2709.856, 3499.140
2711.784, 3483.940
2713.713, 3478.070
2715.641, 3479.614
2717.570, 3478.219
2719.498, 3476.154
2721.427, 3488.058
2723.355, 3508.475
2725.283, 3506.453
2727.212, 3491.045
2729.140, 3496.942
2731.069, 3515.419
2732.997, 3509.259
2734.926, 3489.578
2736.854, 3507.062
2738.783, 3546.507
2740.711, 3547.460
2742.640, 3524.828
2744.568, 3520.109
2746.497, 3527.476
2748.425, 3532.520
2750.354, 3534.272
2752.282, 3524.760
2754.210, 3511.977
2756.139, 3520.052
2758.067, 3538.466
2759.996, 3542.176
2761.924, 3540.544
2763.853, 3563.489
2765.781, 3590.848
2767.710, 3569.450
2769.638, 3530.206
2771.567, 3527.623
2773.495, 3542.290
2775.424, 3547.042
2777.352, 3544.264
2779.281, 3531.059
2781.209, 3518.539
2783.137, 3525.606
2785.066, 3540.330
2786.994, 3552.210
2788.923, 3560.245
2790.851, 3565.156
2792.780, 3563.632
2794.708, 3537.714
2796.637, 3519.881
2798.565, 3555.718
2800.494, 3593.003
2802.422, 3573.690
2804.351, 3549.667
2806.279, 3574.034
2808.208, 3597.628
2810.136, 3581.321
2812.064, 3562.063
2813.993, 3564.223
2815.921, 3570.752
2817.850, 3571.988
2819.778, 3573.872
2821.707, 3574.364
2823.635, 3584.932
2825.564, 3629.594
2827.492, 3653.557
2829.421, 3610.459
2831.349, 3581.830
2833.278, 3601.179
2835.206, 3622.193
2837.135, 3636.517
2839.063, 3642.854
2840.991, 3631.117
2842.920, 3629.517
2844.848, 3650.333
2846.777, 3664.019
2848.705, 3665.865
2850.634, 3668.230
2852.562, 3676.081
2854.491, 3672.707
2856.419, 3648.758
2858.348, 3631.828
2860.276, 3621.398
2862.205, 3628.373
2864.133, 3654.477
2866.062, 3672.235
2867.990, 3679.554
2869.918, 3681.057
2871.847, 3676.851
2873.775, 3684.104
2875.704, 3700.034
2877.632, 3705.045
2879.561, 3700.830
2881.489, 3696.083
2883.418, 3691.459
2885.346, 3691.230
2887.275, 3692.212
2889.203, 3686.256
2891.132, 3676.298
2893.060, 3661.025
2894.989, 3650.958
2896.917, 3672.966
2898.845, 3699.061
2900.774, 3692.978
2902.702, 3680.430
2904.631, 3687.167
2906.559, 3695.733
2908.488, 3692.852
2910.416, 3685.317
2912.345, 3671.060
2914.273, 3663.725
2916.202, 3676.474
2918.130, 3688.244
2920.059, 3695.679
2921.987, 3690.042
2923.916, 3659.693
2925.844, 3644.618
2927.772, 3665.327
2929.701, 3679.839
2931.629, 3680.873
2933.558, 3676.142
2935.486, 3663.007
2937.415, 3673.743
2939.343, 3716.983
2941.272, 3734.847
2943.200, 3722.291
2945.129, 3722.467
2947.057, 3733.198
2948.986, 3735.537
2950.914, 3729.375
2952.843, 3710.938
2954.771, 3689.858
2956.699, 3704.595
2958.628, 3735.057
2960.556, 3740.639
2962.485, 3733.431
2964.413, 3724.075
2966.342, 3716.469
2968.270, 3712.886
2970.199, 3715.995
2972.127, 3738.360
2974.056, 3751.651
2975.984, 3725.051
2977.913, 3705.878
2979.841, 3731.114
2981.770, 3736.650
2983.698, 3692.257
2985.626, 3662.982
2987.555, 3668.982
2989.483, 3692.305
2991.412, 3740.984
2993.340, 3760.413
2995.269, 3744.300
2997.197, 3722.263
2999.126, 3694.442
3001.054, 3714.547
3002.983, 3774.991
3004.911, 3768.102
3006.840, 3718.720
3008.768, 3715.638
3010.697, 3740.261
3012.625, 3758.602
3014.553, 3766.521
3016.482, 3744.653
3018.410, 3723.660
3020.339, 3739.854
3022.267, 3760.851
3024.196, 3762.002
3026.124, 3759.289
3028.053, 3760.505
3029.981, 3758.786
3031.910, 3744.454
3033.838, 3740.712
3035.767, 3758.844
3037.695, 3763.197
3039.624, 3746.017
3041.552, 3739.535
3043.480, 3749.883
3045.409, 3757.471
3047.337, 3762.659
3049.266, 3779.471
3051.194, 3801.832
3053.123, 3799.221
3055.051, 3783.447
3056.980, 3786.513
3058.908, 3795.390
3060.837, 3790.241
3062.765, 3779.959
3064.694, 3764.352
3066.622, 3759.052
3068.551, 3790.765
3070.479, 3810.052
3072.407, 3783.455
3074.336, 3771.219
3076.264, 3811.717
3078.193, 3829.703
3080.121, 3812.276
3082.050, 3804.025
3083.978, 3810.181
3085.907, 3830.699
3087.835, 3865.301
3089.764, 3840.929
3091.692, 3780.324
3093.621, 3788.602
3095.549, 3826.020
3097.478, 3801.776
3099.406, 3761.936
3101.334, 3771.000
3103.263, 3793.982
3105.191, 3813.932
3107.120, 3822.716
3109.048, 3809.944
3110.977, 3793.671
3112.905, 3773.682
3114.834, 3767.324
3116.762, 3784.585
3118.691, 3801.683
3120.619, 3817.388
3122.548, 3837.848
3124.476, 3860.934
3126.405, 3857.833
3128.333, 3837.181
3130.261, 3837.469
3132.190, 3846.329
3134.118, 3837.139
3136.047, 3825.340
3137.975, 3829.963
3139.904, 3835.822
3141.832, 3828.981
3143.761, 3826.735
3145.689, 3844.000
3147.618, 3850.873
3149.546, 3831.181
3151.475, 3827.007
3153.403, 3843.315
3155.332, 3846.402
3157.260, 3833.631
3159.188, 3831.462
3161.117, 3839.479
3163.045, 3865.584
3164.974, 3891.890
3166.902, 3881.550
3168.831, 3859.836
3170.759, 3853.217
3172.688, 3850.133
3174.616, 3836.903
3176.545, 3836.797
3178.473, 3880.432
3180.402, 3893.263
3182.330, 3859.991
3184.259, 3828.642
3186.187, 3803.536
3188.115, 3807.689
3190.044, 3837.796
3191.972, 3853.461
3193.901, 3858.316
3195.829, 3860.385
3197.758, 3860.074
3199.686, 3855.463
3201.615, 3852.184
3203.543, 3854.673
3205.472, 3858.803
3207.400, 3860.498
3209.329, 3870.281
3211.257, 3894.665
3213.186, 3898.108
3215.114, 3871.158
3217.042, 3851.387
3218.971, 3839.732
3220.899, 3849.826
3222.828, 3870.208
3224.756, 3874.836
3226.685, 3872.762
3228.613, 3878.602
3230.542, 3878.455
3232.470, 3848.087
3234.399, 3835.859
3236.327, 3886.719
3238.256, 3900.869
3240.184, 3859.763
3242.113, 3844.970
3244.041, 3867.118
3245.969, 3855.393
3247.898, 3823.587
3249.826, 3844.773
3251.755, 3885.996
3253.683, 3900.115
3255.612, 3899.063
3257.540, 3888.877
3259.469, 3875.882
3261.397, 3854.141
3263.326, 3848.710
3265.254, 3868.841
3267.183, 3887.489
3269.111, 3902.360
3271.040, 3906.993
3272.968, 3903.256
3274.896, 3904.510
3276.825, 3904.494
3278.753, 3883.416
3280.682, 3866.434
3282.610, 3890.373
3284.539, 3906.843
3286.467, 3886.656
3288.396, 3876.238
3290.324, 3900.305
3292.253, 3910.631
3294.181, 3906.125
3296.110, 3899.933
3298.038, 3893.524
3299.967, 3888.656
3301.895, 3887.518
3303.823, 3897.065
3305.752, 3908.311
3307.680, 3911.889
3309.609, 3919.455
3311.537, 3941.502
3313.466, 3947.812
3315.394, 3927.053
3317.323, 3912.011
3319.251, 3904.205
3321.180, 3909.571
3323.108, 3921.994
3325.037, 3922.272
3326.965, 3921.024
3328.894, 3940.118
3330.822, 3951.509
3332.750, 3933.915
3334.679, 3913.365
3336.607, 3894.292
3338.536, 3881.426
3340.464, 3875.350
3342.393, 3879.057
3344.321, 3890.443
3346.250, 3901.433
3348.178, 3910.685
3350.107, 3918.063
3352.035, 3920.655
3353.964, 3910.970
3355.892, 3905.339
3357.821, 3911.593
3359.749, 3912.191
3361.677, 3902.327
3363.606, 3898.440
3365.534, 3900.526
3367.463, 3908.029
3369.391, 3918.673
3371.320, 3930.935
3373.248, 3940.865
3375.177, 3948.212
3377.105, 3947.286
3379.034, 3927.826
3380.962, 3921.032
3382.891, 3930.794
3384.819, 3945.564
3386.748, 3960.344
3388.676, 3936.184
3390.604, 3898.408
3392.533, 3885.488
3394.461, 3884.479
3396.390, 3887.060
3398.318, 3896.689
3400.247, 3921.313
3402.175, 3924.452
3404.104, 3895.628
3406.032, 3905.214
3407.961, 3939.443
3409.889, 3940.777
3411.818, 3929.578
3413.746, 3929.717
3415.675, 3941.891
3417.603, 3987.738
3419.531, 4000.793
3421.460, 3956.509
3423.388, 3923.458
3425.317, 3908.085
3427.245, 3925.223
3429.174, 3956.814
3431.102, 3947.186
3433.031, 3928.130
3434.959, 3927.512
3436.888, 3932.947
3438.816, 3939.960
3440.745, 3950.803
3442.673, 3968.799
3444.602, 3963.468
3446.530, 3941.551
3448.458, 3956.428
3450.387, 3978.446
3452.315, 3957.367
3454.244, 3936.101
3456.172, 3939.489
3458.101, 3948.019
3460.029, 3969.283
3461.958, 3951.635
3463.886, 3901.243
3465.815, 3881.845
3467.743, 3888.719
3469.672, 3938.902
3471.600, 3969.406
3473.529, 3901.168
3475.457, 3860.685
3477.385, 3901.614
3479.314, 3941.244
3481.242, 3972.347
3483.171, 3969.193
3485.099, 3947.235
3487.028, 3960.958
3488.956, 3970.483
3490.885, 3926.454
3492.813, 3887.687
3494.742, 3873.261
3496.670, 3872.508
3498.599, 3885.065
3500.527, 3911.946
3502.456, 3944.931
3504.384, 3955.980
3506.313, 3954.399
3508.241, 3937.656
3510.169, 3933.429
3512.098, 3957.597
3514.026, 3971.147
3515.955, 3968.323
3517.883, 3945.524
3519.812, 3915.435
3521.740, 3915.171
3523.669, 3926.622
3525.597, 3937.405
3527.526, 3939.491
3529.454, 3924.446
3531.383, 3909.657
3533.311, 3896.500
3535.240, 3926.413
3537.168, 3970.954
3539.096, 3943.035
3541.025, 3901.748
3542.953, 3895.930
3544.882, 3898.725
3546.810, 3903.953
3548.739, 3905.463
3550.667, 3903.812
3552.596, 3914.362
3554.524, 3926.885
3556.453, 3914.669
3558.381, 3897.816
3560.310, 3883.094
3562.238, 3884.689
3564.167, 3907.399
3566.095, 3923.069
3568.023, 3928.806
3569.952, 3914.939
3571.880, 3897.713
3573.809, 3891.353
3575.737, 3906.607
3577.666, 3974.767
3579.594, 3988.863
3581.523, 3927.227
3583.451, 3906.474
3585.380, 3914.770
3587.308, 3890.652
3589.237, 3871.761
3591.165, 3908.554
3593.094, 3934.397
3595.022, 3929.236
3596.950, 3914.860
3598.879, 3894.711
3600.807, 3885.355
3602.736, 3883.676
3604.664, 3878.242
3606.593, 3889.900
3608.521, 3947.098
3610.450, 3961.575
3612.378, 3897.011
3614.307, 3896.083
3616.235, 3931.449
3618.164, 3909.510
3620.092, 3878.684
3622.021, 3898.368
3623.949, 3901.550
3625.877, 3857.604
3627.806, 3839.611
3629.734, 3849.034
3631.663, 3885.712
3633.591, 3916.713
3635.520, 3874.338
3637.448, 3843.885
3639.377, 3871.353
3641.305, 3888.461
3643.234, 3886.546
3645.162, 3900.507
3647.091, 3913.818
3649.019, 3876.591
3650.948, 3846.379
3652.876, 3866.634
3654.804, 3873.982
3656.733, 3847.792
3658.661, 3854.463
3660.590, 3880.399
3662.518, 3877.271
3664.447, 3871.158
3666.375, 3886.966
3668.304, 3901.259
3670.232, 3908.939
3672.161, 3901.002
3674.089, 3883.786
3676.018, 3887.626
3677.946, 3895.718
3679.875, 3883.489
3681.803, 3880.901
3683.731, 3918.342
3685.660, 3908.942
3687.588, 3862.822
3689.517, 3849.484
3691.445, 3851.699
3693.374, 3853.209
3695.302, 3846.490
3697.231, 3809.463
3699.159, 3824.999
3701.088, 3883.554
3703.016, 3883.530
3704.945, 3860.636
3706.873, 3871.080
3708.802, 3873.801
3710.730, 3839.218
3712.658, 3832.217
3714.587, 3851.361
3716.515, 3852.843
3718.444, 3844.634
3720.372, 3833.337
3722.301, 3827.806
3724.229, 3831.358
3726.158, 3849.671
3728.086, 3877.539
3730.015, 3859.178
3731.943, 3825.575
3733.872, 3819.507
3735.800, 3818.113
3737.729, 3810.399
3739.657, 3815.675
3741.585, 3832.308
3743.514, 3840.425
3745.442, 3846.759
3747.371, 3866.136
3749.299, 3875.498
3751.228, 3864.426
3753.156, 3845.592
3755.085, 3824.218
3757.013, 3827.823
3758.942, 3838.782
3760.870, 3845.770
3762.799, 3833.803
3764.727, 3784.071
3766.656, 3793.868
3768.584, 3841.614
3770.512, 3840.015
3772.441, 3817.566
3774.369, 3783.753
3776.298, 3777.281
3778.226, 3834.822
3780.155, 3853.572
3782.083, 3863.074
3784.012, 3863.824
3785.940, 3829.613
3787.869, 3840.547
3789.797, 3833.390
3791.726, 3825.489
3793.654, 3842.780
3795.583, 3813.652
3797.511, 3830.543
3799.439, 3829.065
3801.368, 3835.992
3803.296, 3824.716
3805.225, 3819.062
3807.153, 3758.552
3809.082, 3752.415
3811.010, 3785.523
3812.939, 3817.323
3814.867, 3839.101
3816.796, 3830.957
3818.724, 3806.713
3820.653, 3823.989
3822.581, 3834.997
3824.510, 3783.055
3826.438, 3772.304
3828.366, 3812.754
3830.295, 3824.704
3832.223, 3819.113
3834.152, 3809.410
3836.080, 3813.559
3838.009, 3859.583
3839.937, 3846.266
3841.866, 3787.434
3843.794, 3793.477
3845.723, 3812.425
3847.651, 3790.762
3849.580, 3778.796
3851.508, 3794.244
3853.437, 3789.098
3855.365, 3770.446
3857.293, 3751.068
3859.222, 3734.159
3861.150, 3716.233
3863.079, 3726.668
3865.007, 3758.091
3866.936, 3735.654
3868.864, 3707.582
3870.793, 3737.875
3872.721, 3748.225
3874.650, 3711.894
3876.578, 3683.872
3878.507, 3675.328
3880.435, 3733.525
3882.364, 3756.038
3884.292, 3687.804
3886.220, 3647.223
3888.149, 3641.302
3890.077, 3642.422
3892.006, 3646.968
3893.934, 3654.150
3895.863, 3658.894
3897.791, 3660.376
3899.720, 3644.947
3901.648, 3625.051
3903.577, 3627.117
3905.505, 3629.789
3907.434, 3627.405
3909.362, 3606.790
3911.291, 3579.675
3913.219, 3605.179
3915.147, 3625.738
3917.076, 3593.998
3919.004, 3575.370
3920.933, 3576.328
3922.861, 3574.869
3924.790, 3570.241
3926.718, 3572.056
3928.647, 3580.106
3930.575, 3600.884
3932.504, 3552.649
3934.432, 3490.806
3936.361, 3529.784
3938.289, 3554.890
3940.218, 3531.868
3942.146, 3514.285
3944.074, 3495.366
3946.003, 3477.010
3947.931, 3476.382
3949.860, 3503.127
3951.788, 3517.711
3953.717, 3511.337
3955.645, 3498.763
3957.574, 3484.865
3959.502, 3459.660
3961.431, 3453.031
3963.359, 3471.439
3965.288, 3495.035
3967.216, 3502.742
3969.145, 3451.824
3971.073, 3407.135
3973.001, 3406.078
3974.930, 3426.262
3976.858, 3440.209
3978.787, 3412.393
3980.715, 3392.290
3982.644, 3393.757
3984.572, 3412.816
3986.501, 3437.077
3988.429, 3423.095
3990.358, 3403.596
3992.286, 3384.080
3994.215, 3351.278
3996.143, 3323.616
3998.072, 3341.691
4000.000, 3376.268
4001.928, 3385.413
4003.857, 3367.229
4005.785, 3344.906
4007.714, 3357.729
4009.642, 3376.875
4011.571, 3365.458
4013.499, 3331.875
4015.428, 3299.655
4017.356, 3314.274
4019.285, 3342.029
4021.213, 3355.569
4023.142, 3340.129
4025.070, 3301.109
4026.999, 3297.585
4028.927, 3317.084
4030.855, 3312.913
4032.784, 3291.049
4034.712, 3296.705
4036.641, 3309.204
4038.569, 3302.271
4040.498, 3268.131
4042.426, 3251.972
4044.355, 3262.547
4046.283, 3258.390
4048.212, 3237.602
4050.140, 3218.460
4052.069, 3210.760
4053.997, 3207.188
4055.926, 3204.580
4057.854, 3212.106
4059.782, 3225.901
4061.711, 3237.549
4063.639, 3247.588
4065.568, 3228.979
4067.496, 3204.189
4069.425, 3205.067
4071.353, 3200.887
4073.282, 3195.555
4075.210, 3206.824
4077.139, 3202.030
4079.067, 3188.328
4080.996, 3176.354
4082.924, 3158.525
4084.853, 3179.206
4086.781, 3192.023
4088.709, 3156.320
4090.638, 3128.802
4092.566, 3125.256
4094.495, 3123.436
4096.423, 3124.310
4098.352, 3141.113
4100.280, 3142.225
4102.208, 3124.897
4104.137, 3114.712
4106.065, 3111.672
4107.994, 3113.013
4109.922, 3099.333
4111.851, 3072.913
4113.779, 3083.742
4115.708, 3096.713
4117.636, 3073.280
4119.565, 3070.339
4121.493, 3094.453
4123.422, 3071.054
4125.350, 3042.163
4127.279, 3064.174
4129.207, 3063.433
4131.136, 3027.727
4133.064, 3025.670
4134.993, 3033.211
4136.921, 3011.572
4138.850, 3012.448
4140.778, 3046.322
4142.707, 3022.877
4144.635, 2990.846
4146.563, 3023.452
4148.492, 3035.563
4150.420, 3013.603
4152.349, 3004.852
4154.277, 3003.753
4156.206, 3008.905
4158.134, 3001.706
4160.063, 2987.537
4161.991, 2982.999
4163.919, 2973.860
4165.848, 2943.518
4167.776, 2939.890
4169.705, 2976.276
4171.633, 2975.511
4173.562, 2956.786
4175.490, 2972.707
4177.419, 2969.051
4179.347, 2931.984
4181.276, 2928.829
4183.204, 2936.502
4185.133, 2939.273
4187.061, 2934.008
4188.990, 2918.068
4190.918, 2932.147
4192.847, 2945.596
4194.775, 2915.758
4196.704, 2908.238
4198.632, 2935.996
4200.561, 2941.974
4202.489, 2933.927
4204.417, 2914.316
4206.346, 2905.039
4208.274, 2909.259
4210.203, 2897.133
4212.131, 2880.002
4214.060, 2883.944
4215.988, 2879.003
4217.917, 2859.443
4219.845, 2856.206
4221.773, 2864.402
4223.702, 2890.453
4225.630, 2894.478
4227.559, 2872.968
4229.487, 2850.156
4231.416, 2837.329
4233.344, 2854.312
4235.273, 2843.524
4237.201, 2811.861
4239.130, 2815.598
4241.058, 2827.409
4242.987, 2836.378
4244.915, 2824.496
4246.844, 2805.144
4248.772, 2835.970
4250.701, 2860.858
4252.629, 2849.168
4254.558, 2834.819
4256.486, 2822.088
4258.415, 2818.939
4260.343, 2820.572
4262.271, 2827.781
4264.200, 2809.698
4266.128, 2795.260
4268.057, 2844.716
4269.985, 2861.729
4271.914, 2826.606
4273.842, 2803.541
4275.771, 2798.087
4277.699, 2831.375
4279.627, 2838.313
4281.556, 2818.508
4283.484, 2823.863
4285.413, 2830.824
4287.341, 2818.119
4289.270, 2819.185
4291.198, 2828.456
4293.127, 2820.296
4295.055, 2816.205
4296.984, 2827.369
4298.912, 2844.073
4300.841, 2854.389
4302.769, 2818.648
4304.698, 2816.016
4306.626, 2871.272
4308.555, 2851.244
4310.483, 2805.729
4312.412, 2770.042
4314.340, 2787.351
4316.269, 2848.497
4318.197, 2839.680
4320.125, 2820.679
4322.054, 2825.732
4323.982, 2827.180
4325.911, 2825.446
4327.839, 2831.461
4329.768, 2826.309
4331.696, 2803.327
4333.625, 2791.428
4335.553, 2795.938
4337.481, 2834.258
4339.410, 2852.172
4341.338, 2843.176
4343.267, 2811.284
4345.195, 2792.255
4347.124, 2813.295
4349.052, 2826.060
4350.981, 2827.700
4352.909, 2822.834
4354.838, 2813.611
4356.766, 2800.776
4358.695, 2791.939
4360.623, 2791.797
4362.552, 2809.309
4364.480, 2827.471
4366.409, 2839.813
4368.337, 2818.813
4370.266, 2796.066
4372.194, 2793.457
4374.123, 2800.260
4376.051, 2809.221
4377.979, 2797.548
4379.908, 2799.894
4381.836, 2829.997
4383.765, 2829.604
4385.693, 2817.443
4387.622, 2807.177
4389.550, 2812.718
4391.479, 2828.209
4393.407, 2817.802
4395.335, 2807.124
4397.264, 2806.983
4399.192, 2802.115
4401.121, 2798.924
4403.049, 2813.017
4404.978, 2814.280
4406.906, 2802.427
4408.835, 2808.670
4410.763, 2810.280
4412.692, 2791.350
4414.620, 2773.057
4416.549, 2764.827
4418.477, 2791.785
4420.406, 2800.317
4422.334, 2779.056
4424.263, 2798.714
4426.191, 2817.357
4428.120, 2793.687
4430.048, 2789.993
4431.977, 2800.957
4433.905, 2808.112
4435.833, 2804.434
4437.762, 2788.530
4439.690, 2780.263
4441.619, 2783.950
4443.547, 2808.080
4445.476, 2810.480
4447.404, 2798.518
4449.333, 2804.544
4451.261, 2803.318
4453.189, 2788.240
4455.118, 2795.544
4457.046, 2803.301
4458.975, 2786.454
4460.903, 2774.202
4462.832, 2768.867
4464.760, 2776.758
4466.689, 2774.127
4468.617, 2752.529
4470.546, 2777.263
4472.474, 2803.833
4474.403, 2796.843
4476.331, 2786.122
4478.260, 2776.623
4480.188, 2771.679
4482.117, 2767.010
4484.045, 2763.114
4485.974, 2784.705
4487.902, 2801.225
4489.831, 2785.900
4491.759, 2761.607
4493.688, 2740.848
4495.616, 2751.841
4497.544, 2761.799
4499.473, 2764.641
4501.401, 2761.330
4503.330, 2763.750
4505.258, 2779.266
4507.187, 2775.115
4509.115, 2765.175
4511.043, 2778.980
4512.972, 2759.957
4514.900, 2721.803
4516.829, 2760.450
4518.757, 2795.176
4520.686, 2789.209
4522.614, 2793.625
4524.543, 2784.934
4526.471, 2725.541
4528.400, 2742.585
4530.328, 2796.195
4532.257, 2753.205
4534.185, 2726.783
4536.114, 2736.821
4538.042, 2722.714
4539.971, 2718.843
4541.899, 2756.266
4543.828, 2769.344
4545.756, 2773.134
4547.685, 2795.700
4549.613, 2802.021
4551.542, 2789.246
4553.470, 2745.590
4555.398, 2739.518
4557.327, 2784.736
4559.255, 2778.000
4561.184, 2760.568
4563.112, 2769.153
4565.041, 2765.536
4566.969, 2756.151
4568.897, 2757.388
4570.826, 2750.775
4572.754, 2736.860
4574.683, 2735.414
4576.611, 2726.356
4578.540, 2704.859
4580.468, 2716.559
4582.397, 2737.584
4584.325, 2751.592
4586.254, 2745.710
4588.182, 2734.309
4590.111, 2747.314
4592.039, 2754.615
4593.968, 2749.398
4595.896, 2707.393
4597.825, 2684.917
4599.753, 2697.853
4601.682, 2733.657
4603.610, 2758.378
4605.539, 2743.255
4607.467, 2728.032
4609.396, 2722.226
4611.324, 2745.051
4613.252, 2751.651
4615.181, 2743.417
4617.109, 2741.506
4619.038, 2732.706
4620.966, 2718.144
4622.895, 2732.314
4624.823, 2746.166
4626.751, 2739.519
4628.680, 2752.785
4630.608, 2762.860
4632.537, 2744.006
4634.465, 2744.537
4636.394, 2749.789
4638.322, 2719.281
4640.251, 2703.753
4642.179, 2707.145
4644.108, 2713.093
4646.036, 2720.431
4647.965, 2728.500
4649.893, 2695.047
4651.822, 2681.998
4653.750, 2721.990
4655.679, 2751.579
4657.607, 2756.042
4659.536, 2711.441
4661.464, 2692.950
4663.393, 2693.892
4665.321, 2699.548
4667.250, 2689.585
4669.178, 2673.309
4671.106, 2703.952
4673.035, 2716.847
4674.963, 2700.802
4676.892, 2711.426
4678.820, 2714.850
4680.749, 2692.055
4682.677, 2673.869
4684.605, 2674.722
4686.534, 2708.155
4688.462, 2716.927
4690.391, 2714.156
4692.319, 2725.924
4694.248, 2712.192
4696.176, 2691.143
4698.105, 2717.409
4700.033, 2719.340
4701.962, 2694.307
4703.890, 2675.487
4705.819, 2658.802
4707.747, 2643.909
4709.676, 2629.790
4711.604, 2647.256
4713.533, 2710.427
4715.461, 2701.358
4717.390, 2686.723
4719.318, 2712.235
4721.247, 2706.892
4723.175, 2687.105
4725.104, 2671.110
4727.032, 2660.352
4728.960, 2656.587
4730.889, 2662.723
4732.817, 2681.688
4734.746, 2697.585
4736.674, 2670.050
4738.603, 2649.077
4740.531, 2642.169
4742.459, 2636.871
4744.388, 2653.171
4746.316, 2685.667
4748.245, 2674.001
4750.173, 2663.951
4752.102, 2674.346
4754.030, 2644.374
4755.959, 2626.205
4757.887, 2645.337
4759.816, 2652.520
4761.744, 2642.900
4763.673, 2604.220
4765.601, 2608.580
4767.530, 2622.972
4769.458, 2610.417
4771.387, 2636.811
4773.315, 2667.511
4775.244, 2643.657
4777.172, 2637.633
4779.101, 2639.304
4781.029, 2613.459
4782.958, 2602.275
4784.886, 2608.060
4786.814, 2627.155
4788.743, 2645.859
4790.671, 2657.341
4792.600, 2637.592
4794.528, 2641.071
4796.457, 2664.656
4798.385, 2618.424
4800.313, 2603.523
4802.242, 2639.688
4804.170, 2627.122
4806.099, 2615.257
4808.027, 2619.973
4809.956, 2622.878
4811.884, 2610.573
4813.813, 2577.450
4815.741, 2618.506
4817.670, 2637.840
4819.598, 2586.732
4821.527, 2565.508
4823.455, 2576.030
4825.384, 2624.642
4827.312, 2612.205
4829.241, 2588.270
4831.169, 2589.779
4833.098, 2587.156
4835.026, 2588.931
4836.955, 2612.903
4838.883, 2587.413
4840.812, 2560.812
4842.740, 2582.520
4844.668, 2597.361
4846.597, 2596.605
4848.525, 2563.849
4850.454, 2578.633
4852.382, 2594.563
4854.311, 2544.072
4856.239, 2562.374
4858.167, 2602.610
4860.096, 2581.406
4862.024, 2576.138
4863.953, 2585.954
4865.881, 2607.237
4867.810, 2599.072
4869.738, 2571.886
4871.667, 2538.344
4873.595, 2532.399
4875.524, 2548.046
4877.452, 2579.441
4879.381, 2582.697
4881.309, 2568.464
4883.238, 2566.678
4885.166, 2534.500
4887.095, 2498.813
4889.023, 2514.801
4890.952, 2534.738
4892.880, 2543.443
4894.809, 2520.091
4896.737, 2502.463
4898.666, 2498.253
4900.594, 2520.310
4902.522, 2529.417
4904.451, 2523.329
4906.379, 2497.906
4908.308, 2513.171
4910.236, 2538.578
4912.165, 2504.535
4914.093, 2532.586
4916.021, 2568.340
4917.950, 2507.496
4919.878, 2496.804
4921.807, 2517.397
4923.735, 2521.607
4925.664, 2534.401
4927.592, 2533.200
4929.521, 2473.838
4931.449, 2498.678
4933.378, 2542.382
4935.306, 2510.616
4937.235, 2512.536
4939.163, 2528.984
4941.092, 2538.701
4943.020, 2508.464
4944.949, 2481.390
4946.877, 2498.683
4948.806, 2477.483
4950.734, 2453.561
4952.663, 2465.254
4954.591, 2469.959
4956.520, 2467.256
4958.448, 2457.308
4960.376, 2450.585
4962.305, 2459.615
4964.233, 2491.615
4966.162, 2480.453
4968.090, 2465.202
4970.019, 2466.259
4971.947, 2461.068
4973.875, 2463.993
4975.804, 2478.059
4977.732, 2485.500
4979.661, 2478.872
4981.589, 2457.685
4983.518, 2430.590
4985.446, 2417.440
4987.375, 2422.746
4989.303, 2452.438
4991.232, 2453.561
4993.160, 2432.589
4995.089, 2458.358
4997.017, 2434.546
4998.946, 2392.053
5000.874, 2453.833
5002.803, 2449.209
5004.731, 2406.973
5006.660, 2416.139
5008.588, 2421.182
5010.517, 2413.583
5012.445, 2383.046
5014.374, 2385.109
5016.302, 2402.153
5018.230, 2415.288
5020.159, 2412.583
5022.087, 2410.995
5024.016, 2426.364
5025.944, 2417.910
5027.873, 2405.684
5029.801, 2399.043
5031.729, 2389.434
5033.658, 2395.356
5035.586, 2415.503
5037.515, 2380.813
5039.443, 2371.669
5041.372, 2395.776
5043.300, 2397.858
5045.229, 2397.459
5047.157, 2398.132
5049.086, 2401.294
5051.014, 2389.797
5052.943, 2379.625
5054.871, 2409.472
5056.800, 2378.989
5058.728, 2345.526
5060.657, 2371.683
5062.585, 2372.870
5064.514, 2369.688
5066.442, 2381.408
5068.371, 2374.147
5070.299, 2346.785
5072.228, 2305.447
5074.156, 2318.635
5076.084, 2348.278
5078.013, 2369.773
5079.941, 2323.907
5081.870, 2306.652
5083.798, 2321.775
5085.727, 2343.418
5087.655, 2336.193
5089.583, 2323.166
5091.512, 2339.998
5093.440, 2353.219
5095.369, 2347.351
5097.297, 2306.308
5099.226, 2294.561
5101.154, 2298.534
5103.083, 2309.901
5105.011, 2316.386
5106.940, 2319.465
5108.868, 2322.143
5110.797, 2342.935
5112.725, 2327.391
5114.654, 2288.055
5116.582, 2269.310
5118.511, 2261.995
5120.439, 2265.197
5122.368, 2280.559
5124.296, 2271.368
5126.225, 2271.700
5128.153, 2308.295
5130.082, 2291.064
5132.010, 2274.231
5133.938, 2273.828
5135.867, 2242.952
5137.795, 2230.674
5139.724, 2241.119
5141.652, 2266.602
5143.581, 2267.244
5145.509, 2263.710
5147.438, 2298.240
5149.366, 2271.282
5151.294, 2246.673
5153.223, 2266.760
5155.151, 2286.534
5157.080, 2258.889
5159.008, 2189.904
5160.937, 2210.777
5162.865, 2231.143
5164.794, 2231.010
5166.722, 2205.427
5168.651, 2214.751
5170.579, 2240.779
5172.508, 2259.300
5174.436, 2223.210
5176.365, 2192.832
5178.293, 2201.997
5180.222, 2211.523
5182.150, 2216.937
5184.079, 2217.450
5186.007, 2213.320
5187.936, 2212.987
5189.864, 2215.603
5191.792, 2215.545
5193.721, 2253.214
5195.649, 2255.894
5197.578, 2170.081
5199.506, 2152.283
5201.435, 2174.567
5203.363, 2212.760
5205.292, 2224.542
5207.220, 2184.033
5209.148, 2138.205
5211.077, 2174.613
5213.005, 2187.762
5214.934, 2183.561
5216.862, 2170.449
5218.791, 2150.703
5220.719, 2153.652
5222.648, 2177.635
5224.576, 2181.608
5226.505, 2190.603
5228.433, 2192.741
5230.362, 2150.276
5232.290, 2168.474
5234.219, 2187.260
5236.147, 2167.804
5238.076, 2169.152
5240.004, 2164.349
5241.933, 2147.743
5243.861, 2116.166
5245.790, 2147.633
5247.718, 2187.659
5249.646, 2152.069
5251.575, 2129.192
5253.503, 2117.723
5255.432, 2115.400
5257.360, 2125.990
5259.289, 2137.187
5261.217, 2138.072
5263.146, 2101.996
5265.074, 2105.262
5267.002, 2113.684
5268.931, 2092.567
5270.859, 2084.619
5272.788, 2104.922
5274.716, 2139.254
5276.645, 2115.678
5278.573, 2089.417
5280.502, 2079.899
5282.430, 2108.596
5284.359, 2097.264
5286.287, 2086.682
5288.216, 2094.156
5290.144, 2070.503
5292.073, 2061.213
5294.001, 2068.858
5295.930, 2080.938
5297.858, 2099.654
5299.787, 2104.485
5301.715, 2082.275
5303.644, 2062.712
5305.572, 2085.888
5307.500, 2124.182
5309.429, 2080.926
5311.357, 2036.250
5313.286, 2027.973
5315.214, 2072.650
5317.143, 2070.085
5319.071, 2063.437
5321.000, 2062.491
5322.928, 2037.842
5324.856, 2037.263
5326.785, 2047.174
5328.713, 2049.210
5330.642, 2038.339
5332.570, 2039.473
5334.499, 2047.150
5336.427, 2000.929
5338.356, 2009.662
5340.284, 2033.285
5342.213, 2012.441
5344.141, 2035.475
5346.070, 2035.811
5347.998, 2004.589
5349.927, 2001.068
5351.855, 2007.456
5353.784, 1999.315
5355.712, 1957.939
5357.641, 1982.487
5359.569, 1997.296
5361.498, 1987.225
5363.426, 2012.840
5365.354, 2012.697
5367.283, 1995.452
5369.211, 1976.638
5371.140, 1988.636
5373.068, 1981.763
5374.997, 1955.246
5376.925, 1949.501
5378.854, 1931.694
5380.782, 1932.571
5382.710, 1978.649
5384.639, 1954.081
5386.567, 1940.535
5388.496, 1944.850
5390.424, 1930.152
5392.353, 1945.896
5394.281, 1949.345
5396.210, 1922.725
5398.138, 1950.607
5400.067, 1939.508
5401.995, 1912.014
5403.924, 1934.666
5405.852, 1958.439
5407.781, 1965.037
5409.709, 1954.251
5411.638, 1960.797
5413.566, 1960.269
5415.495, 1946.190
5417.423, 1918.063
5419.352, 1907.485
5421.280, 1916.268
5423.208, 1931.441
5425.137, 1917.526
5427.065, 1928.893
5428.994, 1928.506
5430.922, 1895.366
5432.851, 1890.946
5434.779, 1890.872
5436.708, 1888.285
5438.636, 1881.622
5440.564, 1881.105
5442.493, 1876.213
5444.421, 1865.420
5446.350, 1854.533
5448.278, 1868.689
5450.207, 1880.082
5452.135, 1866.662
5454.064, 1850.388
5455.992, 1861.034
5457.921, 1870.862
5459.849, 1826.914
5461.778, 1832.434
5463.706, 1837.526
5465.635, 1828.261
5467.563, 1849.136
5469.492, 1852.637
5471.420, 1837.171
5473.349, 1807.015
5475.277, 1834.047
5477.206, 1844.779
5479.134, 1832.468
5481.063, 1812.550
5482.991, 1783.751
5484.919, 1786.312
5486.848, 1815.883
5488.776, 1823.709
5490.705, 1813.206
5492.633, 1802.239
5494.562, 1801.291
5496.490, 1812.350
5498.418, 1787.746
5500.347, 1759.030
5502.275, 1769.967
5504.204, 1790.682
5506.132, 1807.162
5508.061, 1812.481
5509.989, 1801.356
5511.918, 1799.821
5513.846, 1792.407
5515.775, 1778.113
5517.703, 1781.738
5519.632, 1779.845
5521.560, 1778.611
5523.489, 1780.852
5525.417, 1733.286
5527.346, 1770.288
5529.274, 1808.343
5531.203, 1737.726
5533.131, 1730.762
5535.060, 1738.681
5536.988, 1742.283
5538.917, 1735.513
5540.845, 1722.830
5542.773, 1720.370
5544.702, 1730.517
5546.630, 1748.287
5548.559, 1748.778
5550.487, 1738.171
5552.416, 1723.273
5554.344, 1710.316
5556.272, 1725.578
5558.201, 1737.005
5560.129, 1721.226
5562.058, 1689.413
5563.986, 1703.182
5565.915, 1720.255
5567.843, 1695.688
5569.772, 1699.449
5571.700, 1674.913
5573.629, 1652.040
5575.557, 1688.239
5577.486, 1649.919
5579.414, 1650.391
5581.343, 1690.107
5583.271, 1709.633
5585.200, 1681.488
5587.128, 1669.285
5589.057, 1674.096
5590.985, 1643.103
5592.914, 1683.905
5594.842, 1693.632
5596.771, 1654.789
5598.699, 1665.555
5600.627, 1657.056
5602.556, 1645.043
5604.484, 1643.223
5606.413, 1660.419
5608.341, 1665.182
5610.270, 1663.609
5612.198, 1659.480
5614.126, 1635.657
5616.055, 1629.208
5617.983, 1624.465
5619.912, 1612.339
5621.840, 1633.115
5623.769, 1631.738
5625.697, 1617.825
5627.626, 1608.938
5629.554, 1625.334
5631.483, 1626.606
5633.411, 1625.552
5635.340, 1635.375
5637.268, 1624.107
5639.197, 1619.766
5641.125, 1613.946
5643.054, 1595.626
5644.982, 1579.874
5646.911, 1596.017
5648.839, 1607.256
5650.768, 1579.895
5652.696, 1564.486
5654.625, 1582.485
5656.553, 1591.237
5658.481, 1591.239
5660.410, 1556.274
5662.338, 1566.460
5664.267, 1558.551
5666.195, 1549.901
5668.124, 1566.439
5670.052, 1536.563
5671.980, 1552.703
5673.909, 1550.472
5675.837, 1556.651
5677.766, 1532.254
5679.694, 1525.600
5681.623, 1562.011
5683.551, 1529.946
5685.480, 1518.308
5687.408, 1526.831
5689.337, 1538.628
5691.265, 1526.363
5693.194, 1531.361
5695.122, 1535.327
5697.051, 1524.865
5698.979, 1509.141
5700.908, 1526.075
5702.836, 1536.270
5704.765, 1519.370
5706.693, 1488.953
5708.622, 1508.412
5710.550, 1518.424
5712.479, 1502.510
5714.407, 1515.655
5716.335, 1510.225
5718.264, 1496.378
5720.192, 1488.389
5722.121, 1506.641
5724.049, 1475.366
5725.978, 1475.229
5727.906, 1498.952
5729.834, 1487.699
5731.763, 1451.829
5733.691, 1467.693
5735.620, 1500.251
5737.548, 1485.050
5739.477, 1443.010
5741.405, 1451.845
5743.334, 1466.383
5745.262, 1435.961
5747.191, 1431.318
5749.119, 1445.202
5751.048, 1445.215
5752.976, 1421.179
5754.905, 1443.495
5756.833, 1449.157
5758.762, 1442.263
5760.690, 1431.196
5762.619, 1418.277
5764.547, 1423.507
5766.476, 1410.106
5768.404, 1384.469
5770.333, 1383.935
5772.261, 1421.421
5774.189, 1426.084
5776.118, 1417.410
5778.046, 1436.061
5779.975, 1403.819
5781.903, 1413.512
5783.832, 1418.393
5785.760, 1381.797
5787.688, 1398.427
5789.617, 1395.825
5791.545, 1388.061
5793.474, 1387.337
5795.402, 1393.521
5797.331, 1372.446
5799.259, 1365.625
5801.188, 1377.347
5803.116, 1388.529
5805.045, 1386.685
5806.973, 1360.540
5808.902, 1362.913
5810.830, 1431.951
5812.759, 1387.498
5814.687, 1365.801
5816.616, 1371.615
5818.544, 1383.324
5820.473, 1371.570
5822.401, 1385.288
5824.330, 1363.734
5826.258, 1326.923
5828.187, 1338.368
5830.115, 1346.001
5832.043, 1344.939
5833.972, 1337.119
5835.900, 1326.988
5837.829, 1325.559
5839.757, 1345.803
5841.686, 1364.664
5843.614, 1362.095
5845.542, 1312.151
5847.471, 1323.114
5849.399, 1337.754
5851.328, 1338.701
5853.256, 1330.887
5855.185, 1333.314
5857.113, 1307.198
5859.042, 1295.254
5860.970, 1314.689
5862.899, 1321.098
5864.827, 1313.517
5866.756, 1287.596
5868.684, 1269.409
5870.613, 1295.244
5872.541, 1305.320
5874.470, 1286.960
5876.398, 1286.042
5878.327, 1314.293
5880.255, 1291.097
5882.184, 1274.155
5884.112, 1284.234
5886.041, 1296.222
5887.969, 1274.149
5889.897, 1277.373
5891.826, 1257.735
5893.754, 1247.552
5895.683, 1264.088
5897.611, 1267.868
5899.540, 1291.512
5901.468, 1270.791
5903.396, 1241.306
5905.325, 1267.232
5907.253, 1252.578
5909.182, 1252.281
5911.110, 1232.329
5913.039, 1193.847
5914.967, 1219.781
5916.896, 1222.329
5918.824, 1228.750
5920.753, 1231.036
5922.681, 1214.974
5924.610, 1212.176
5926.538, 1220.334
5928.467, 1225.144
5930.395, 1226.496
5932.324, 1240.920
5934.252, 1222.490
5936.181, 1208.406
5938.109, 1199.852
5940.038, 1195.489
5941.966, 1217.644
5943.895, 1235.234
5945.823, 1207.414
5947.751, 1173.287
5949.680, 1189.951
5951.608, 1203.579
5953.537, 1203.779
5955.465, 1212.306
5957.394, 1212.806
5959.322, 1158.770
5961.250, 1167.780
5963.179, 1163.353
5965.107, 1165.894
5967.036, 1187.909
5968.964, 1189.573
5970.893, 1165.121
5972.821, 1159.568
5974.750, 1175.320
5976.678, 1189.429
5978.607, 1144.455
5980.535, 1138.286
5982.464, 1148.417
5984.392, 1150.516
5986.321, 1137.034
5988.249, 1144.939
5990.178, 1137.182
5992.106, 1154.285
5994.035, 1181.844
5995.963, 1162.290
5997.892, 1111.273
5999.820, 1154.888
6001.749, 1182.066
6003.677, 1153.768
6005.605, 1164.203
6007.534, 1142.958
6009.462, 1138.577
6011.391, 1147.037
6013.319, 1147.571
6015.248, 1116.702
6017.176, 1107.730
6019.104, 1124.840
6021.033, 1124.048
6022.961, 1094.046
6024.890, 1121.480
6026.818, 1099.585
6028.747, 1091.013
6030.675, 1108.414
6032.604, 1131.749
6034.532, 1115.023
6036.461, 1085.133
6038.389, 1075.734
6040.318, 1093.088
6042.246, 1120.981
6044.175, 1099.452
6046.103, 1103.335
6048.032, 1086.728
6049.960, 1066.820
6051.889, 1075.061
6053.817, 1092.251
6055.746, 1110.725
6057.674, 1092.540
6059.603, 1069.256
6061.531, 1077.590
6063.459, 1080.363
6065.388, 1082.082
6067.316, 1062.719
6069.245, 1053.909
6071.173, 1077.518
6073.102, 1062.752
6075.030, 1040.106
6076.958, 1033.997
6078.887, 1041.924
6080.815, 1050.339
6082.744, 1035.795
6084.672, 1054.784
6086.601, 1033.761
6088.529, 1008.708
6090.458, 1011.901
6092.386, 984.8244
6094.315, 1030.352
6096.243, 1035.533
6098.172, 1021.297
6100.100, 1020.027
6102.029, 1018.444
6103.957, 1042.259
6105.886, 1036.492
6107.814, 1017.673
6109.743, 1013.818
6111.671, 1041.169
6113.600, 1007.536
6115.528, 989.4153
6117.457, 997.6860
6119.385, 1009.939
6121.313, 1000.802
6123.242, 990.2090
6125.170, 993.3401
6127.099, 1008.419
6129.027, 1015.680
6130.956, 1002.143
6132.884, 993.6744
6134.813, 965.6259
6136.741, 984.3226
6138.669, 992.6354
6140.598, 962.1469
6142.526, 980.4752
6144.455, 975.5836
6146.383, 984.2488
6148.312, 983.6991
6150.240, 970.2261
6152.169, 969.3518
6154.097, 988.1144
6156.026, 966.6414
6157.954, 951.9881
6159.883, 960.7637
6161.811, 977.8246
6163.740, 978.9391
6165.668, 971.8296
6167.597, 967.2209
6169.525, 953.4772
6171.454, 936.1642
6173.382, 949.5338
6175.311, 964.3267
6177.239, 943.0809
6179.167, 939.0632
6181.096, 945.8569
6183.024, 926.8724
6184.953, 953.1904
6186.881, 932.7109
6188.810, 943.5257
6190.738, 938.3314
6192.667, 897.6379
6194.595, 929.1451
6196.523, 901.2344
6198.452, 909.6752
6200.380, 926.9120
6202.309, 919.2640
6204.237, 887.2383
6206.166, 927.6559
6208.094, 944.4800
6210.023, 933.4771
6211.951, 920.2236
6213.880, 919.9660
6215.808, 927.2868
6217.737, 916.0981
6219.665, 907.0212
6221.594, 906.9093
6223.522, 906.6689
6225.451, 899.8925
6227.379, 915.9235
6229.308, 883.2524
6231.236, 880.0286
6233.165, 891.3554
6235.093, 890.1450
6237.021, 871.3547
6238.950, 898.5672
6240.878, 880.4069
6242.807, 889.9272
6244.735, 896.0698
6246.664, 874.8160
6248.592, 871.1913
6250.521, 875.5812
6252.449, 864.2371
6254.377, 871.2925
6256.306, 874.4003
6258.234, 862.1307
6260.163, 897.6817
6262.091, 868.0319
6264.020, 859.7202
6265.948, 859.2632
6267.877, 855.0695
6269.805, 852.6968
6271.734, 855.9308
6273.662, 858.8005
6275.591, 839.1705
6277.519, 822.3041
6279.448, 821.0940
6281.376, 826.4897
6283.305, 813.5316
6285.233, 840.6827
6287.162, 841.2360
6289.090, 827.8915
6291.019, 821.5721
6292.947, 824.8535
6294.875, 823.9275
6296.804, 827.5052
6298.732, 793.2159
6300.661, 799.8585
6302.589, 832.2178
6304.518, 805.0519
6306.446, 799.5099
6308.375, 805.9892
6310.303, 814.9200
6312.231, 795.1122
6314.160, 773.5868
6316.088, 794.2736
6318.017, 795.1383
6319.945, 803.4722
6321.874, 791.3034
6323.802, 787.1307
6325.731, 799.8542
6327.659, 809.0434
6329.588, 788.8118
6331.516, 778.1434
6333.445, 784.5855
6335.373, 794.0190
6337.302, 791.4355
6339.230, 775.2971
6341.159, 767.5244
6343.087, 779.4057
6345.016, 792.7606
6346.944, 785.6413
6348.873, 771.0875
6350.801, 763.2655
6352.729, 752.1699
6354.658, 779.9421
6356.586, 768.3173
6358.515, 776.3128
6360.443, 760.7742
6362.372, 733.9366
6364.300, 775.7947
6366.229, 764.5188
6368.157, 764.6917
6370.085, 759.9333
6372.014, 747.8192
6373.942, 738.2871
6375.871, 744.1262
6377.799, 772.4032
6379.728, 739.4651
6381.656, 719.3632
6383.585, 720.6834
6385.513, 724.1108
6387.442, 725.3199
6389.370, 740.9113
6391.299, 751.9512
6393.227, 740.6796
6395.156, 749.5935
6397.084, 741.9484
6399.013, 718.4586
6400.941, 712.9191
6402.870, 726.2846
6404.798, 703.6323
6406.727, 718.0571
6408.655, 729.6912
6410.583, 721.8843
6412.512, 708.3918
6414.440, 708.2817
6416.369, 728.9615
6418.297, 722.7479
6420.226, 711.1240
6422.154, 692.7423
6424.083, 687.0958
6426.011, 700.1017
6427.939, 691.5556
6429.868, 687.9474
6431.796, 682.8778
6433.725, 690.2754
6435.653, 705.1645
6437.582, 701.5517
6439.510, 671.8209
6441.439, 683.0073
6443.367, 685.6459
6445.296, 676.0160
6447.224, 688.9893
6449.153, 695.4443
6451.081, 691.7177
6453.010, 700.0835
6454.938, 688.8566
6456.867, 676.4045
6458.795, 659.2139
6460.724, 668.8370
6462.652, 681.5936
6464.581, 677.3640
6466.509, 669.3851
6468.438, 689.9070
6470.366, 672.0556
6472.294, 698.2880
6474.223, 675.6974
6476.151, 669.4727
6478.080, 694.2545
6480.008, 678.4694
6481.937, 657.9163
6483.865, 661.3350
6485.793, 638.4973
6487.722, 652.1619
6489.650, 664.0810
6491.579, 652.2888
6493.507, 644.7125
6495.436, 654.3434
6497.364, 652.3832
6499.293, 637.7174
6501.221, 647.2972
6503.150, 647.5179
6505.078, 637.3665
6507.007, 639.7379
6508.935, 648.1984
6510.864, 653.5709
6512.792, 643.1732
6514.721, 645.6398
6516.649, 640.0516
6518.578, 625.1989
6520.506, 620.6587
6522.435, 634.5522
6524.363, 637.2543
6526.292, 643.0591
6528.220, 614.2205
6530.148, 615.8203
6532.077, 632.4880
6534.005, 639.3157
6535.934, 637.0722
6537.862, 617.8391
6539.791, 623.3979
6541.719, 635.5029
6543.647, 634.0992
6545.576, 623.9957
6547.504, 606.3994
6549.433, 598.9717
6551.361, 615.5881
6553.290, 599.2956
6555.218, 614.0782
6557.147, 597.8046
6559.075, 589.6382
6561.004, 588.4364
6562.932, 588.1420
6564.861, 584.9022
6566.789, 566.1016
6568.718, 573.4782
6570.646, 567.3285
6572.575, 554.1393
6574.503, 550.0475
6576.432, 548.5748
6578.360, 540.6700
6580.289, 536.4173
6582.217, 527.1372
6584.146, 529.2220
6586.074, 526.4919
6588.002, 528.9407
6589.931, 531.1299
6591.859, 519.5776
##END=



